SpectraSuite Data File
++++++++++++++++++++++++++++++++++++
Date: Thu Mar 05 14:54:26 IST 2020
User: User
Dark Spectrum Present: Yes
Reference Spectrum Present: Yes
Number of Sampled Component Spectra: 1
Spectrometers: NQ51A0580
Integration Time (usec): 5000 (NQ51A0580)
Spectra Averaged: 1 (NQ51A0580)
Boxcar Smoothing: 0 (NQ51A0580)
Correct for Electrical Dark: No (NQ51A0580)
Strobe/Lamp Enabled: No (NQ51A0580)
Correct for Detector Non-linearity: No (NQ51A0580)
Correct for Stray Light: No (NQ51A0580)
Number of Pixels in Processed Spectrum: 512
>>>>>Begin Processed Spectral Data<<<<<
899.32	0.117
900.95	0.117
902.58	0.118
904.21	0.119
905.83	0.119
907.46	0.120
909.09	0.122
910.72	0.123
912.34	0.124
913.97	0.125
915.60	0.126
917.22	0.128
918.85	0.130
920.48	0.133
922.11	0.136
923.73	0.138
925.36	0.142
926.99	0.144
928.61	0.148
930.24	0.151
931.87	0.155
933.49	0.159
935.12	0.164
936.74	0.169
938.37	0.174
940.00	0.180
941.62	0.186
943.25	0.193
944.87	0.201
946.50	0.210
948.12	0.220
949.75	0.231
951.38	0.242
953.00	0.253
954.63	0.262
956.25	0.271
957.88	0.278
959.50	0.282
961.13	0.286
962.75	0.288
964.37	0.290
966.00	0.291
967.62	0.292
969.25	0.293
970.87	0.293
972.50	0.293
974.12	0.293
975.74	0.293
977.37	0.292
978.99	0.291
980.62	0.289
982.24	0.287
983.86	0.285
985.49	0.283
987.11	0.280
988.73	0.277
990.36	0.274
991.98	0.270
993.60	0.268
995.22	0.264
996.85	0.260
998.47	0.256
1000.09	0.253
1001.71	0.249
1003.34	0.245
1004.96	0.241
1006.58	0.237
1008.20	0.233
1009.82	0.229
1011.45	0.225
1013.07	0.221
1014.69	0.217
1016.31	0.213
1017.93	0.208
1019.55	0.205
1021.17	0.200
1022.80	0.197
1024.42	0.193
1026.04	0.190
1027.66	0.186
1029.28	0.183
1030.90	0.179
1032.52	0.176
1034.14	0.173
1035.76	0.170
1037.38	0.167
1039.00	0.165
1040.62	0.162
1042.24	0.160
1043.86	0.157
1045.48	0.156
1047.10	0.154
1048.72	0.152
1050.34	0.150
1051.96	0.148
1053.57	0.147
1055.19	0.146
1056.81	0.145
1058.43	0.144
1060.05	0.143
1061.67	0.143
1063.29	0.142
1064.90	0.142
1066.52	0.142
1068.14	0.142
1069.76	0.141
1071.38	0.142
1072.99	0.142
1074.61	0.143
1076.23	0.143
1077.84	0.144
1079.46	0.145
1081.08	0.146
1082.70	0.147
1084.31	0.148
1085.93	0.150
1087.55	0.151
1089.16	0.153
1090.78	0.154
1092.39	0.157
1094.01	0.159
1095.63	0.161
1097.24	0.162
1098.86	0.164
1100.47	0.166
1102.09	0.168
1103.70	0.170
1105.32	0.173
1106.93	0.175
1108.55	0.177
1110.16	0.180
1111.78	0.182
1113.39	0.185
1115.01	0.188
1116.62	0.191
1118.24	0.195
1119.85	0.199
1121.46	0.204
1123.08	0.210
1124.69	0.217
1126.30	0.226
1127.92	0.236
1129.53	0.248
1131.14	0.263
1132.76	0.281
1134.37	0.301
1135.98	0.324
1137.60	0.348
1139.21	0.373
1140.82	0.399
1142.43	0.426
1144.04	0.451
1145.66	0.475
1147.27	0.497
1148.88	0.516
1150.49	0.532
1152.10	0.545
1153.71	0.556
1155.32	0.564
1156.94	0.572
1158.55	0.576
1160.16	0.582
1161.77	0.585
1163.38	0.588
1164.99	0.590
1166.60	0.592
1168.21	0.594
1169.82	0.596
1171.43	0.598
1173.04	0.599
1174.65	0.601
1176.26	0.602
1177.87	0.603
1179.48	0.606
1181.08	0.608
1182.69	0.610
1184.30	0.612
1185.91	0.614
1187.52	0.616
1189.13	0.617
1190.73	0.619
1192.34	0.619
1193.95	0.620
1195.56	0.619
1197.16	0.619
1198.77	0.617
1200.38	0.616
1201.99	0.615
1203.59	0.612
1205.20	0.610
1206.81	0.607
1208.41	0.606
1210.02	0.604
1211.63	0.602
1213.23	0.600
1214.84	0.598
1216.44	0.595
1218.05	0.592
1219.65	0.591
1221.26	0.588
1222.86	0.586
1224.47	0.583
1226.07	0.580
1227.68	0.578
1229.28	0.575
1230.89	0.573
1232.49	0.570
1234.10	0.568
1235.70	0.565
1237.30	0.563
1238.91	0.560
1240.51	0.557
1242.11	0.554
1243.72	0.553
1245.32	0.550
1246.92	0.548
1248.52	0.546
1250.13	0.543
1251.73	0.541
1253.33	0.540
1254.93	0.538
1256.54	0.537
1258.14	0.535
1259.74	0.535
1261.34	0.533
1262.94	0.533
1264.54	0.533
1266.14	0.533
1267.74	0.534
1269.34	0.535
1270.94	0.536
1272.54	0.538
1274.14	0.541
1275.74	0.543
1277.34	0.547
1278.94	0.550
1280.54	0.554
1282.14	0.558
1283.74	0.563
1285.34	0.568
1286.94	0.574
1288.54	0.580
1290.14	0.587
1291.73	0.595
1293.33	0.603
1294.93	0.613
1296.53	0.622
1298.13	0.632
1299.72	0.643
1301.32	0.654
1302.92	0.667
1304.51	0.679
1306.11	0.694
1307.71	0.708
1309.30	0.724
1310.90	0.742
1312.50	0.758
1314.09	0.777
1315.69	0.797
1317.28	0.817
1318.88	0.838
1320.47	0.862
1322.07	0.885
1323.66	0.909
1325.26	0.934
1326.85	0.958
1328.45	0.984
1330.04	1.010
1331.63	1.037
1333.23	1.062
1334.82	1.089
1336.41	1.112
1338.01	1.140
1339.60	1.159
1341.19	1.188
1342.79	1.207
1344.38	1.226
1345.97	1.246
1347.56	1.265
1349.16	1.284
1350.75	1.299
1352.34	1.315
1353.93	1.329
1355.52	1.345
1357.11	1.361
1358.70	1.372
1360.29	1.385
1361.88	1.407
1363.47	1.428
1365.06	1.448
1366.65	1.464
1368.24	1.486
1369.83	1.513
1371.42	1.538
1373.01	1.566
1374.60	1.578
1376.19	1.595
1377.78	1.602
1379.37	1.607
1380.96	1.609
1382.54	1.628
1384.13	1.637
1385.72	1.639
1387.31	1.641
1388.89	1.643
1390.48	1.633
1392.07	1.631
1393.66	1.628
1395.24	1.627
1396.83	1.634
1398.41	1.619
1400.00	1.628
1401.59	1.633
1403.17	1.625
1404.76	1.625
1406.34	1.627
1407.93	1.627
1409.51	1.634
1411.10	1.631
1412.68	1.627
1414.27	1.636
1415.85	1.636
1417.43	1.634
1419.02	1.634
1420.60	1.634
1422.18	1.634
1423.77	1.634
1425.35	1.642
1426.93	1.630
1428.52	1.645
1430.10	1.626
1431.68	1.635
1433.26	1.632
1434.84	1.631
1436.42	1.632
1438.01	1.635
1439.59	1.634
1441.17	1.631
1442.75	1.631
1444.33	1.630
1445.91	1.630
1447.49	1.629
1449.07	1.628
1450.65	1.632
1452.23	1.628
1453.81	1.634
1455.39	1.625
1456.97	1.630
1458.54	1.621
1460.12	1.630
1461.70	1.616
1463.28	1.619
1464.86	1.622
1466.43	1.621
1468.01	1.621
1469.59	1.622
1471.17	1.621
1472.74	1.619
1474.32	1.617
1475.90	1.616
1477.47	1.614
1479.05	1.615
1480.62	1.606
1482.20	1.615
1483.77	1.603
1485.35	1.603
1486.92	1.601
1488.50	1.600
1490.07	1.593
1491.65	1.600
1493.22	1.592
1494.79	1.590
1496.37	1.586
1497.94	1.589
1499.51	1.587
1501.09	1.582
1502.66	1.581
1504.23	1.580
1505.81	1.580
1507.38	1.582
1508.95	1.579
1510.52	1.585
1512.09	1.575
1513.66	1.582
1515.23	1.584
1516.80	1.579
1518.38	1.584
1519.95	1.578
1521.52	1.581
1523.09	1.577
1524.66	1.575
1526.22	1.578
1527.79	1.577
1529.36	1.574
1530.93	1.572
1532.50	1.571
1534.07	1.572
1535.64	1.566
1537.20	1.568
1538.77	1.568
1540.34	1.564
1541.91	1.566
1543.47	1.563
1545.04	1.556
1546.61	1.563
1548.17	1.557
1549.74	1.553
1551.31	1.555
1552.87	1.552
1554.44	1.556
1556.00	1.548
1557.57	1.549
1559.13	1.548
1560.70	1.548
1562.26	1.546
1563.82	1.544
1565.39	1.543
1566.95	1.542
1568.51	1.541
1570.08	1.544
1571.64	1.540
1573.20	1.541
1574.77	1.541
1576.33	1.531
1577.89	1.532
1579.45	1.535
1581.01	1.531
1582.57	1.532
1584.13	1.527
1585.70	1.528
1587.26	1.524
1588.82	1.521
1590.38	1.521
1591.94	1.522
1593.50	1.519
1595.05	1.517
1596.61	1.518
1598.17	1.516
1599.73	1.514
1601.29	1.511
1602.85	1.507
1604.41	1.509
1605.96	1.504
1607.52	1.509
1609.08	1.501
1610.63	1.501
1612.19	1.500
1613.75	1.501
1615.30	1.495
1616.86	1.495
1618.42	1.493
1619.97	1.492
1621.53	1.493
1623.08	1.487
1624.64	1.489
1626.19	1.485
1627.74	1.486
1629.30	1.480
1630.85	1.478
1632.41	1.479
1633.96	1.470
1635.51	1.474
1637.06	1.464
1638.62	1.466
1640.17	1.459
1641.72	1.460
1643.27	1.453
1644.82	1.451
1646.38	1.447
1647.93	1.445
1649.48	1.441
1651.03	1.431
1652.58	1.431
1654.13	1.420
1655.68	1.415
1657.23	1.403
1658.78	1.398
1660.33	1.388
1661.87	1.375
1663.42	1.366
1664.97	1.347
1666.52	1.332
1668.07	1.313
1669.61	1.294
1671.16	1.269
1672.71	1.244
1674.26	1.218
1675.80	1.194
1677.35	1.160
1678.89	1.129
1680.44	1.098
1681.99	1.069
1683.53	1.037
1685.08	1.004
1686.62	0.967
1688.16	0.936
1689.71	0.902
1691.25	0.877
1692.80	0.849
1694.34	0.821
1695.88	0.794
1697.42	0.770
1698.97	0.745
1700.51	0.722
1702.05	0.694
1703.59	0.673
1705.14	0.647
1706.68	0.625
1708.22	0.602
1709.76	0.582
1711.30	0.559
1712.84	0.536
>>>>>End Processed Spectral Data<<<<<
