SpectraSuite Data File
++++++++++++++++++++++++++++++++++++
Date: Thu Mar 05 14:40:20 IST 2020
User: User
Dark Spectrum Present: Yes
Reference Spectrum Present: Yes
Number of Sampled Component Spectra: 1
Spectrometers: NQ51A0580
Integration Time (usec): 5000 (NQ51A0580)
Spectra Averaged: 1 (NQ51A0580)
Boxcar Smoothing: 0 (NQ51A0580)
Correct for Electrical Dark: No (NQ51A0580)
Strobe/Lamp Enabled: No (NQ51A0580)
Correct for Detector Non-linearity: No (NQ51A0580)
Correct for Stray Light: No (NQ51A0580)
Number of Pixels in Processed Spectrum: 512
>>>>>Begin Processed Spectral Data<<<<<
899.32	0.122
900.95	0.123
902.58	0.124
904.21	0.125
905.83	0.125
907.46	0.126
909.09	0.126
910.72	0.125
912.34	0.126
913.97	0.126
915.60	0.127
917.22	0.128
918.85	0.129
920.48	0.131
922.11	0.133
923.73	0.135
925.36	0.137
926.99	0.139
928.61	0.141
930.24	0.143
931.87	0.145
933.49	0.148
935.12	0.151
936.74	0.155
938.37	0.158
940.00	0.163
941.62	0.167
943.25	0.172
944.87	0.178
946.50	0.184
948.12	0.192
949.75	0.200
951.38	0.209
953.00	0.216
954.63	0.223
956.25	0.229
957.88	0.233
959.50	0.238
961.13	0.241
962.75	0.243
964.37	0.245
966.00	0.248
967.62	0.249
969.25	0.251
970.87	0.252
972.50	0.253
974.12	0.254
975.74	0.254
977.37	0.255
978.99	0.254
980.62	0.254
982.24	0.254
983.86	0.253
985.49	0.252
987.11	0.251
988.73	0.249
990.36	0.248
991.98	0.246
993.60	0.244
995.22	0.241
996.85	0.240
998.47	0.237
1000.09	0.236
1001.71	0.233
1003.34	0.230
1004.96	0.227
1006.58	0.224
1008.20	0.221
1009.82	0.218
1011.45	0.215
1013.07	0.211
1014.69	0.208
1016.31	0.205
1017.93	0.201
1019.55	0.198
1021.17	0.194
1022.80	0.191
1024.42	0.187
1026.04	0.185
1027.66	0.182
1029.28	0.179
1030.90	0.176
1032.52	0.173
1034.14	0.170
1035.76	0.168
1037.38	0.165
1039.00	0.163
1040.62	0.161
1042.24	0.159
1043.86	0.157
1045.48	0.156
1047.10	0.154
1048.72	0.152
1050.34	0.151
1051.96	0.149
1053.57	0.148
1055.19	0.147
1056.81	0.146
1058.43	0.145
1060.05	0.144
1061.67	0.143
1063.29	0.143
1064.90	0.142
1066.52	0.142
1068.14	0.142
1069.76	0.142
1071.38	0.142
1072.99	0.142
1074.61	0.142
1076.23	0.142
1077.84	0.142
1079.46	0.143
1081.08	0.143
1082.70	0.144
1084.31	0.145
1085.93	0.146
1087.55	0.147
1089.16	0.148
1090.78	0.149
1092.39	0.151
1094.01	0.153
1095.63	0.154
1097.24	0.156
1098.86	0.157
1100.47	0.159
1102.09	0.161
1103.70	0.162
1105.32	0.164
1106.93	0.166
1108.55	0.167
1110.16	0.169
1111.78	0.171
1113.39	0.173
1115.01	0.175
1116.62	0.178
1118.24	0.181
1119.85	0.185
1121.46	0.189
1123.08	0.194
1124.69	0.200
1126.30	0.208
1127.92	0.217
1129.53	0.229
1131.14	0.243
1132.76	0.260
1134.37	0.279
1135.98	0.299
1137.60	0.320
1139.21	0.341
1140.82	0.361
1142.43	0.381
1144.04	0.400
1145.66	0.417
1147.27	0.434
1148.88	0.448
1150.49	0.462
1152.10	0.474
1153.71	0.486
1155.32	0.497
1156.94	0.508
1158.55	0.518
1160.16	0.527
1161.77	0.535
1163.38	0.544
1164.99	0.551
1166.60	0.559
1168.21	0.565
1169.82	0.572
1171.43	0.580
1173.04	0.589
1174.65	0.599
1176.26	0.610
1177.87	0.621
1179.48	0.632
1181.08	0.637
1182.69	0.640
1184.30	0.636
1185.91	0.631
1187.52	0.625
1189.13	0.620
1190.73	0.616
1192.34	0.613
1193.95	0.611
1195.56	0.609
1197.16	0.607
1198.77	0.606
1200.38	0.604
1201.99	0.602
1203.59	0.597
1205.20	0.593
1206.81	0.588
1208.41	0.584
1210.02	0.580
1211.63	0.577
1213.23	0.572
1214.84	0.567
1216.44	0.562
1218.05	0.558
1219.65	0.553
1221.26	0.550
1222.86	0.545
1224.47	0.541
1226.07	0.537
1227.68	0.533
1229.28	0.530
1230.89	0.526
1232.49	0.522
1234.10	0.519
1235.70	0.516
1237.30	0.513
1238.91	0.510
1240.51	0.507
1242.11	0.504
1243.72	0.502
1245.32	0.499
1246.92	0.496
1248.52	0.494
1250.13	0.492
1251.73	0.489
1253.33	0.488
1254.93	0.485
1256.54	0.484
1258.14	0.481
1259.74	0.481
1261.34	0.478
1262.94	0.478
1264.54	0.476
1266.14	0.476
1267.74	0.476
1269.34	0.475
1270.94	0.475
1272.54	0.475
1274.14	0.476
1275.74	0.477
1277.34	0.479
1278.94	0.481
1280.54	0.483
1282.14	0.484
1283.74	0.487
1285.34	0.490
1286.94	0.495
1288.54	0.499
1290.14	0.503
1291.73	0.509
1293.33	0.515
1294.93	0.522
1296.53	0.528
1298.13	0.536
1299.72	0.544
1301.32	0.553
1302.92	0.562
1304.51	0.572
1306.11	0.582
1307.71	0.594
1309.30	0.606
1310.90	0.620
1312.50	0.634
1314.09	0.649
1315.69	0.665
1317.28	0.681
1318.88	0.699
1320.47	0.717
1322.07	0.737
1323.66	0.757
1325.26	0.779
1326.85	0.800
1328.45	0.822
1330.04	0.845
1331.63	0.868
1333.23	0.891
1334.82	0.914
1336.41	0.937
1338.01	0.961
1339.60	0.982
1341.19	1.006
1342.79	1.025
1344.38	1.047
1345.97	1.067
1347.56	1.089
1349.16	1.111
1350.75	1.132
1352.34	1.146
1353.93	1.164
1355.52	1.177
1357.11	1.192
1358.70	1.206
1360.29	1.219
1361.88	1.240
1363.47	1.258
1365.06	1.281
1366.65	1.301
1368.24	1.329
1369.83	1.354
1371.42	1.386
1373.01	1.418
1374.60	1.441
1376.19	1.472
1377.78	1.500
1379.37	1.518
1380.96	1.549
1382.54	1.576
1384.13	1.608
1385.72	1.619
1387.31	1.628
1388.89	1.634
1390.48	1.625
1392.07	1.632
1393.66	1.619
1395.24	1.630
1396.83	1.629
1398.41	1.620
1400.00	1.624
1401.59	1.630
1403.17	1.620
1404.76	1.626
1406.34	1.625
1407.93	1.630
1409.51	1.629
1411.10	1.631
1412.68	1.628
1414.27	1.634
1415.85	1.632
1417.43	1.633
1419.02	1.635
1420.60	1.636
1422.18	1.631
1423.77	1.631
1425.35	1.638
1426.93	1.634
1428.52	1.641
1430.10	1.627
1431.68	1.635
1433.26	1.631
1434.84	1.634
1436.42	1.628
1438.01	1.636
1439.59	1.636
1441.17	1.632
1442.75	1.633
1444.33	1.631
1445.91	1.629
1447.49	1.629
1449.07	1.629
1450.65	1.630
1452.23	1.626
1453.81	1.629
1455.39	1.622
1456.97	1.626
1458.54	1.620
1460.12	1.628
1461.70	1.619
1463.28	1.621
1464.86	1.619
1466.43	1.621
1468.01	1.623
1469.59	1.617
1471.17	1.621
1472.74	1.617
1474.32	1.614
1475.90	1.615
1477.47	1.611
1479.05	1.612
1480.62	1.609
1482.20	1.608
1483.77	1.601
1485.35	1.599
1486.92	1.598
1488.50	1.601
1490.07	1.592
1491.65	1.600
1493.22	1.589
1494.79	1.593
1496.37	1.582
1497.94	1.589
1499.51	1.583
1501.09	1.581
1502.66	1.579
1504.23	1.580
1505.81	1.581
1507.38	1.577
1508.95	1.579
1510.52	1.579
1512.09	1.576
1513.66	1.576
1515.23	1.580
1516.80	1.575
1518.38	1.584
1519.95	1.573
1521.52	1.583
1523.09	1.578
1524.66	1.570
1526.22	1.579
1527.79	1.576
1529.36	1.574
1530.93	1.570
1532.50	1.570
1534.07	1.570
1535.64	1.569
1537.20	1.566
1538.77	1.565
1540.34	1.560
1541.91	1.561
1543.47	1.558
1545.04	1.554
1546.61	1.561
1548.17	1.548
1549.74	1.555
1551.31	1.551
1552.87	1.553
1554.44	1.555
1556.00	1.549
1557.57	1.547
1559.13	1.545
1560.70	1.546
1562.26	1.545
1563.82	1.544
1565.39	1.543
1566.95	1.543
1568.51	1.540
1570.08	1.541
1571.64	1.538
1573.20	1.539
1574.77	1.542
1576.33	1.532
1577.89	1.535
1579.45	1.532
1581.01	1.532
1582.57	1.530
1584.13	1.527
1585.70	1.528
1587.26	1.524
1588.82	1.520
1590.38	1.521
1591.94	1.524
1593.50	1.518
1595.05	1.518
1596.61	1.516
1598.17	1.515
1599.73	1.510
1601.29	1.514
1602.85	1.509
1604.41	1.509
1605.96	1.505
1607.52	1.502
1609.08	1.506
1610.63	1.504
1612.19	1.502
1613.75	1.499
1615.30	1.495
1616.86	1.495
1618.42	1.494
1619.97	1.490
1621.53	1.490
1623.08	1.486
1624.64	1.484
1626.19	1.483
1627.74	1.478
1629.30	1.481
1630.85	1.474
1632.41	1.475
1633.96	1.466
1635.51	1.473
1637.06	1.456
1638.62	1.463
1640.17	1.457
1641.72	1.452
1643.27	1.445
1644.82	1.445
1646.38	1.441
1647.93	1.437
1649.48	1.432
1651.03	1.426
1652.58	1.419
1654.13	1.416
1655.68	1.403
1657.23	1.401
1658.78	1.388
1660.33	1.381
1661.87	1.361
1663.42	1.359
1664.97	1.340
1666.52	1.328
1668.07	1.309
1669.61	1.291
1671.16	1.267
1672.71	1.244
1674.26	1.222
1675.80	1.197
1677.35	1.165
1678.89	1.135
1680.44	1.103
1681.99	1.071
1683.53	1.038
1685.08	1.009
1686.62	0.971
1688.16	0.937
1689.71	0.914
1691.25	0.874
1692.80	0.853
1694.34	0.823
1695.88	0.794
1697.42	0.769
1698.97	0.745
1700.51	0.722
1702.05	0.694
1703.59	0.672
1705.14	0.647
1706.68	0.624
1708.22	0.603
1709.76	0.581
1711.30	0.558
1712.84	0.542
>>>>>End Processed Spectral Data<<<<<
