SpectraSuite Data File
++++++++++++++++++++++++++++++++++++
Date: Thu Mar 05 14:10:27 IST 2020
User: User
Dark Spectrum Present: Yes
Reference Spectrum Present: Yes
Number of Sampled Component Spectra: 1
Spectrometers: NQ51A0580
Integration Time (usec): 5000 (NQ51A0580)
Spectra Averaged: 1 (NQ51A0580)
Boxcar Smoothing: 0 (NQ51A0580)
Correct for Electrical Dark: No (NQ51A0580)
Strobe/Lamp Enabled: No (NQ51A0580)
Correct for Detector Non-linearity: No (NQ51A0580)
Correct for Stray Light: No (NQ51A0580)
Number of Pixels in Processed Spectrum: 512
>>>>>Begin Processed Spectral Data<<<<<
899.32	0.140
900.95	0.142
902.58	0.143
904.21	0.145
905.83	0.145
907.46	0.144
909.09	0.142
910.72	0.141
912.34	0.140
913.97	0.139
915.60	0.139
917.22	0.139
918.85	0.140
920.48	0.140
922.11	0.141
923.73	0.142
925.36	0.143
926.99	0.143
928.61	0.144
930.24	0.145
931.87	0.146
933.49	0.147
935.12	0.149
936.74	0.150
938.37	0.152
940.00	0.154
941.62	0.157
943.25	0.159
944.87	0.163
946.50	0.167
948.12	0.171
949.75	0.176
951.38	0.180
953.00	0.184
954.63	0.187
956.25	0.191
957.88	0.194
959.50	0.197
961.13	0.200
962.75	0.202
964.37	0.204
966.00	0.206
967.62	0.208
969.25	0.210
970.87	0.211
972.50	0.212
974.12	0.214
975.74	0.215
977.37	0.215
978.99	0.216
980.62	0.217
982.24	0.217
983.86	0.218
985.49	0.218
987.11	0.218
988.73	0.218
990.36	0.217
991.98	0.216
993.60	0.217
995.22	0.215
996.85	0.215
998.47	0.214
1000.09	0.213
1001.71	0.212
1003.34	0.211
1004.96	0.209
1006.58	0.208
1008.20	0.206
1009.82	0.205
1011.45	0.203
1013.07	0.201
1014.69	0.198
1016.31	0.196
1017.93	0.193
1019.55	0.190
1021.17	0.187
1022.80	0.185
1024.42	0.182
1026.04	0.180
1027.66	0.178
1029.28	0.175
1030.90	0.173
1032.52	0.171
1034.14	0.169
1035.76	0.168
1037.38	0.165
1039.00	0.164
1040.62	0.163
1042.24	0.162
1043.86	0.160
1045.48	0.159
1047.10	0.158
1048.72	0.156
1050.34	0.155
1051.96	0.154
1053.57	0.153
1055.19	0.152
1056.81	0.151
1058.43	0.150
1060.05	0.149
1061.67	0.148
1063.29	0.147
1064.90	0.147
1066.52	0.147
1068.14	0.146
1069.76	0.146
1071.38	0.146
1072.99	0.146
1074.61	0.146
1076.23	0.145
1077.84	0.145
1079.46	0.145
1081.08	0.145
1082.70	0.145
1084.31	0.145
1085.93	0.146
1087.55	0.146
1089.16	0.146
1090.78	0.147
1092.39	0.148
1094.01	0.149
1095.63	0.150
1097.24	0.151
1098.86	0.151
1100.47	0.152
1102.09	0.153
1103.70	0.154
1105.32	0.156
1106.93	0.157
1108.55	0.157
1110.16	0.159
1111.78	0.160
1113.39	0.161
1115.01	0.163
1116.62	0.165
1118.24	0.167
1119.85	0.170
1121.46	0.174
1123.08	0.178
1124.69	0.183
1126.30	0.189
1127.92	0.199
1129.53	0.210
1131.14	0.224
1132.76	0.240
1134.37	0.257
1135.98	0.274
1137.60	0.292
1139.21	0.308
1140.82	0.324
1142.43	0.339
1144.04	0.351
1145.66	0.361
1147.27	0.370
1148.88	0.378
1150.49	0.388
1152.10	0.398
1153.71	0.410
1155.32	0.423
1156.94	0.436
1158.55	0.450
1160.16	0.464
1161.77	0.477
1163.38	0.491
1164.99	0.503
1166.60	0.517
1168.21	0.530
1169.82	0.543
1171.43	0.557
1173.04	0.572
1174.65	0.590
1176.26	0.612
1177.87	0.637
1179.48	0.663
1181.08	0.679
1182.69	0.688
1184.30	0.682
1185.91	0.670
1187.52	0.650
1189.13	0.630
1190.73	0.614
1192.34	0.603
1193.95	0.594
1195.56	0.590
1197.16	0.587
1198.77	0.585
1200.38	0.583
1201.99	0.581
1203.59	0.575
1205.20	0.569
1206.81	0.562
1208.41	0.555
1210.02	0.549
1211.63	0.542
1213.23	0.534
1214.84	0.527
1216.44	0.518
1218.05	0.510
1219.65	0.502
1221.26	0.494
1222.86	0.487
1224.47	0.479
1226.07	0.472
1227.68	0.466
1229.28	0.459
1230.89	0.453
1232.49	0.448
1234.10	0.443
1235.70	0.438
1237.30	0.434
1238.91	0.429
1240.51	0.425
1242.11	0.421
1243.72	0.419
1245.32	0.415
1246.92	0.412
1248.52	0.409
1250.13	0.406
1251.73	0.403
1253.33	0.401
1254.93	0.398
1256.54	0.396
1258.14	0.394
1259.74	0.392
1261.34	0.389
1262.94	0.388
1264.54	0.386
1266.14	0.384
1267.74	0.383
1269.34	0.382
1270.94	0.380
1272.54	0.380
1274.14	0.378
1275.74	0.378
1277.34	0.377
1278.94	0.378
1280.54	0.378
1282.14	0.378
1283.74	0.378
1285.34	0.378
1286.94	0.380
1288.54	0.382
1290.14	0.383
1291.73	0.386
1293.33	0.389
1294.93	0.393
1296.53	0.396
1298.13	0.400
1299.72	0.405
1301.32	0.409
1302.92	0.415
1304.51	0.421
1306.11	0.427
1307.71	0.435
1309.30	0.442
1310.90	0.452
1312.50	0.460
1314.09	0.471
1315.69	0.481
1317.28	0.492
1318.88	0.504
1320.47	0.517
1322.07	0.531
1323.66	0.546
1325.26	0.561
1326.85	0.577
1328.45	0.593
1330.04	0.611
1331.63	0.629
1333.23	0.647
1334.82	0.666
1336.41	0.685
1338.01	0.705
1339.60	0.724
1341.19	0.745
1342.79	0.764
1344.38	0.784
1345.97	0.805
1347.56	0.829
1349.16	0.854
1350.75	0.881
1352.34	0.905
1353.93	0.924
1355.52	0.937
1357.11	0.948
1358.70	0.959
1360.29	0.975
1361.88	0.990
1363.47	1.008
1365.06	1.028
1366.65	1.051
1368.24	1.079
1369.83	1.109
1371.42	1.141
1373.01	1.172
1374.60	1.196
1376.19	1.228
1377.78	1.263
1379.37	1.305
1380.96	1.353
1382.54	1.416
1384.13	1.468
1385.72	1.515
1387.31	1.547
1388.89	1.581
1390.48	1.588
1392.07	1.610
1393.66	1.611
1395.24	1.625
1396.83	1.632
1398.41	1.624
1400.00	1.630
1401.59	1.638
1403.17	1.631
1404.76	1.634
1406.34	1.640
1407.93	1.638
1409.51	1.646
1411.10	1.641
1412.68	1.642
1414.27	1.645
1415.85	1.654
1417.43	1.644
1419.02	1.650
1420.60	1.653
1422.18	1.647
1423.77	1.646
1425.35	1.654
1426.93	1.647
1428.52	1.654
1430.10	1.642
1431.68	1.646
1433.26	1.646
1434.84	1.645
1436.42	1.644
1438.01	1.648
1439.59	1.646
1441.17	1.639
1442.75	1.650
1444.33	1.640
1445.91	1.649
1447.49	1.648
1449.07	1.643
1450.65	1.645
1452.23	1.643
1453.81	1.642
1455.39	1.634
1456.97	1.642
1458.54	1.634
1460.12	1.639
1461.70	1.630
1463.28	1.633
1464.86	1.632
1466.43	1.632
1468.01	1.631
1469.59	1.632
1471.17	1.632
1472.74	1.630
1474.32	1.632
1475.90	1.630
1477.47	1.627
1479.05	1.625
1480.62	1.617
1482.20	1.627
1483.77	1.617
1485.35	1.614
1486.92	1.608
1488.50	1.613
1490.07	1.608
1491.65	1.613
1493.22	1.601
1494.79	1.602
1496.37	1.598
1497.94	1.600
1499.51	1.598
1501.09	1.592
1502.66	1.595
1504.23	1.595
1505.81	1.597
1507.38	1.586
1508.95	1.596
1510.52	1.593
1512.09	1.591
1513.66	1.590
1515.23	1.593
1516.80	1.587
1518.38	1.595
1519.95	1.589
1521.52	1.593
1523.09	1.587
1524.66	1.584
1526.22	1.589
1527.79	1.590
1529.36	1.587
1530.93	1.582
1532.50	1.588
1534.07	1.584
1535.64	1.580
1537.20	1.581
1538.77	1.574
1540.34	1.577
1541.91	1.576
1543.47	1.570
1545.04	1.571
1546.61	1.571
1548.17	1.567
1549.74	1.562
1551.31	1.565
1552.87	1.562
1554.44	1.566
1556.00	1.560
1557.57	1.561
1559.13	1.555
1560.70	1.560
1562.26	1.552
1563.82	1.559
1565.39	1.556
1566.95	1.555
1568.51	1.553
1570.08	1.551
1571.64	1.549
1573.20	1.550
1574.77	1.550
1576.33	1.545
1577.89	1.541
1579.45	1.544
1581.01	1.541
1582.57	1.543
1584.13	1.535
1585.70	1.535
1587.26	1.533
1588.82	1.533
1590.38	1.530
1591.94	1.535
1593.50	1.523
1595.05	1.529
1596.61	1.527
1598.17	1.525
1599.73	1.521
1601.29	1.521
1602.85	1.513
1604.41	1.518
1605.96	1.508
1607.52	1.511
1609.08	1.506
1610.63	1.505
1612.19	1.502
1613.75	1.501
1615.30	1.495
1616.86	1.497
1618.42	1.493
1619.97	1.494
1621.53	1.487
1623.08	1.487
1624.64	1.476
1626.19	1.480
1627.74	1.476
1629.30	1.475
1630.85	1.463
1632.41	1.464
1633.96	1.456
1635.51	1.457
1637.06	1.445
1638.62	1.446
1640.17	1.440
1641.72	1.435
1643.27	1.432
1644.82	1.425
1646.38	1.418
1647.93	1.420
1649.48	1.416
1651.03	1.404
1652.58	1.400
1654.13	1.390
1655.68	1.381
1657.23	1.378
1658.78	1.366
1660.33	1.359
1661.87	1.347
1663.42	1.338
1664.97	1.322
1666.52	1.315
1668.07	1.299
1669.61	1.284
1671.16	1.263
1672.71	1.249
1674.26	1.230
1675.80	1.211
1677.35	1.171
1678.89	1.150
1680.44	1.116
1681.99	1.088
1683.53	1.052
1685.08	1.019
1686.62	0.979
1688.16	0.948
1689.71	0.924
1691.25	0.889
1692.80	0.860
1694.34	0.831
1695.88	0.805
1697.42	0.782
1698.97	0.754
1700.51	0.731
1702.05	0.708
1703.59	0.683
1705.14	0.661
1706.68	0.632
1708.22	0.616
1709.76	0.588
1711.30	0.570
1712.84	0.551
>>>>>End Processed Spectral Data<<<<<
