SpectraSuite Data File
++++++++++++++++++++++++++++++++++++
Date: Thu Mar 05 13:47:03 IST 2020
User: User
Dark Spectrum Present: Yes
Reference Spectrum Present: Yes
Number of Sampled Component Spectra: 1
Spectrometers: NQ51A0580
Integration Time (usec): 5000 (NQ51A0580)
Spectra Averaged: 1 (NQ51A0580)
Boxcar Smoothing: 0 (NQ51A0580)
Correct for Electrical Dark: No (NQ51A0580)
Strobe/Lamp Enabled: No (NQ51A0580)
Correct for Detector Non-linearity: No (NQ51A0580)
Correct for Stray Light: No (NQ51A0580)
Number of Pixels in Processed Spectrum: 512
>>>>>Begin Processed Spectral Data<<<<<
899.32	0.130
900.95	0.131
902.58	0.134
904.21	0.136
905.83	0.136
907.46	0.135
909.09	0.133
910.72	0.130
912.34	0.129
913.97	0.128
915.60	0.127
917.22	0.126
918.85	0.128
920.48	0.127
922.11	0.129
923.73	0.129
925.36	0.130
926.99	0.130
928.61	0.130
930.24	0.131
931.87	0.132
933.49	0.133
935.12	0.134
936.74	0.135
938.37	0.136
940.00	0.137
941.62	0.139
943.25	0.141
944.87	0.143
946.50	0.147
948.12	0.150
949.75	0.153
951.38	0.156
953.00	0.159
954.63	0.162
956.25	0.165
957.88	0.167
959.50	0.170
961.13	0.173
962.75	0.175
964.37	0.177
966.00	0.179
967.62	0.180
969.25	0.182
970.87	0.183
972.50	0.184
974.12	0.186
975.74	0.187
977.37	0.188
978.99	0.189
980.62	0.190
982.24	0.191
983.86	0.191
985.49	0.192
987.11	0.192
988.73	0.192
990.36	0.193
991.98	0.192
993.60	0.193
995.22	0.192
996.85	0.192
998.47	0.191
1000.09	0.191
1001.71	0.190
1003.34	0.190
1004.96	0.189
1006.58	0.189
1008.20	0.188
1009.82	0.187
1011.45	0.185
1013.07	0.183
1014.69	0.181
1016.31	0.179
1017.93	0.176
1019.55	0.174
1021.17	0.171
1022.80	0.169
1024.42	0.166
1026.04	0.165
1027.66	0.163
1029.28	0.161
1030.90	0.159
1032.52	0.157
1034.14	0.156
1035.76	0.154
1037.38	0.153
1039.00	0.152
1040.62	0.151
1042.24	0.149
1043.86	0.149
1045.48	0.148
1047.10	0.147
1048.72	0.145
1050.34	0.144
1051.96	0.143
1053.57	0.142
1055.19	0.141
1056.81	0.140
1058.43	0.139
1060.05	0.138
1061.67	0.137
1063.29	0.137
1064.90	0.137
1066.52	0.136
1068.14	0.136
1069.76	0.135
1071.38	0.135
1072.99	0.135
1074.61	0.135
1076.23	0.135
1077.84	0.135
1079.46	0.135
1081.08	0.134
1082.70	0.134
1084.31	0.134
1085.93	0.134
1087.55	0.134
1089.16	0.134
1090.78	0.135
1092.39	0.135
1094.01	0.136
1095.63	0.137
1097.24	0.137
1098.86	0.138
1100.47	0.138
1102.09	0.139
1103.70	0.140
1105.32	0.141
1106.93	0.142
1108.55	0.143
1110.16	0.144
1111.78	0.145
1113.39	0.146
1115.01	0.147
1116.62	0.149
1118.24	0.151
1119.85	0.154
1121.46	0.158
1123.08	0.161
1124.69	0.166
1126.30	0.172
1127.92	0.180
1129.53	0.191
1131.14	0.205
1132.76	0.221
1134.37	0.238
1135.98	0.253
1137.60	0.269
1139.21	0.284
1140.82	0.300
1142.43	0.314
1144.04	0.325
1145.66	0.332
1147.27	0.339
1148.88	0.345
1150.49	0.353
1152.10	0.360
1153.71	0.372
1155.32	0.384
1156.94	0.398
1158.55	0.412
1160.16	0.427
1161.77	0.442
1163.38	0.458
1164.99	0.472
1166.60	0.488
1168.21	0.503
1169.82	0.519
1171.43	0.535
1173.04	0.551
1174.65	0.572
1176.26	0.595
1177.87	0.626
1179.48	0.655
1181.08	0.680
1182.69	0.691
1184.30	0.689
1185.91	0.674
1187.52	0.650
1189.13	0.625
1190.73	0.602
1192.34	0.587
1193.95	0.576
1195.56	0.570
1197.16	0.567
1198.77	0.564
1200.38	0.563
1201.99	0.561
1203.59	0.556
1205.20	0.551
1206.81	0.544
1208.41	0.537
1210.02	0.530
1211.63	0.522
1213.23	0.514
1214.84	0.506
1216.44	0.496
1218.05	0.488
1219.65	0.478
1221.26	0.469
1222.86	0.461
1224.47	0.452
1226.07	0.443
1227.68	0.436
1229.28	0.428
1230.89	0.421
1232.49	0.415
1234.10	0.409
1235.70	0.403
1237.30	0.398
1238.91	0.393
1240.51	0.389
1242.11	0.383
1243.72	0.381
1245.32	0.377
1246.92	0.373
1248.52	0.370
1250.13	0.367
1251.73	0.364
1253.33	0.362
1254.93	0.359
1256.54	0.357
1258.14	0.354
1259.74	0.353
1261.34	0.350
1262.94	0.348
1264.54	0.346
1266.14	0.344
1267.74	0.342
1269.34	0.341
1270.94	0.339
1272.54	0.338
1274.14	0.337
1275.74	0.335
1277.34	0.334
1278.94	0.333
1280.54	0.333
1282.14	0.332
1283.74	0.332
1285.34	0.332
1286.94	0.332
1288.54	0.333
1290.14	0.334
1291.73	0.336
1293.33	0.338
1294.93	0.341
1296.53	0.343
1298.13	0.345
1299.72	0.349
1301.32	0.352
1302.92	0.356
1304.51	0.361
1306.11	0.366
1307.71	0.372
1309.30	0.378
1310.90	0.385
1312.50	0.393
1314.09	0.401
1315.69	0.410
1317.28	0.419
1318.88	0.429
1320.47	0.440
1322.07	0.451
1323.66	0.463
1325.26	0.476
1326.85	0.490
1328.45	0.503
1330.04	0.520
1331.63	0.535
1333.23	0.552
1334.82	0.569
1336.41	0.586
1338.01	0.604
1339.60	0.621
1341.19	0.640
1342.79	0.659
1344.38	0.678
1345.97	0.699
1347.56	0.722
1349.16	0.748
1350.75	0.778
1352.34	0.806
1353.93	0.828
1355.52	0.842
1357.11	0.850
1358.70	0.861
1360.29	0.874
1361.88	0.889
1363.47	0.905
1365.06	0.923
1366.65	0.946
1368.24	0.975
1369.83	1.006
1371.42	1.036
1373.01	1.066
1374.60	1.089
1376.19	1.117
1377.78	1.148
1379.37	1.191
1380.96	1.240
1382.54	1.305
1384.13	1.365
1385.72	1.416
1387.31	1.460
1388.89	1.496
1390.48	1.511
1392.07	1.542
1393.66	1.548
1395.24	1.577
1396.83	1.586
1398.41	1.585
1400.00	1.597
1401.59	1.608
1403.17	1.608
1404.76	1.614
1406.34	1.617
1407.93	1.617
1409.51	1.626
1411.10	1.625
1412.68	1.620
1414.27	1.629
1415.85	1.631
1417.43	1.632
1419.02	1.624
1420.60	1.637
1422.18	1.628
1423.77	1.629
1425.35	1.638
1426.93	1.629
1428.52	1.639
1430.10	1.627
1431.68	1.628
1433.26	1.629
1434.84	1.630
1436.42	1.629
1438.01	1.632
1439.59	1.628
1441.17	1.627
1442.75	1.629
1444.33	1.628
1445.91	1.629
1447.49	1.623
1449.07	1.627
1450.65	1.627
1452.23	1.627
1453.81	1.628
1455.39	1.616
1456.97	1.624
1458.54	1.616
1460.12	1.625
1461.70	1.613
1463.28	1.615
1464.86	1.616
1466.43	1.616
1468.01	1.614
1469.59	1.616
1471.17	1.616
1472.74	1.613
1474.32	1.616
1475.90	1.607
1477.47	1.613
1479.05	1.606
1480.62	1.610
1482.20	1.608
1483.77	1.598
1485.35	1.597
1486.92	1.595
1488.50	1.595
1490.07	1.590
1491.65	1.597
1493.22	1.587
1494.79	1.589
1496.37	1.581
1497.94	1.583
1499.51	1.581
1501.09	1.576
1502.66	1.579
1504.23	1.576
1505.81	1.580
1507.38	1.574
1508.95	1.579
1510.52	1.575
1512.09	1.576
1513.66	1.574
1515.23	1.578
1516.80	1.572
1518.38	1.579
1519.95	1.574
1521.52	1.577
1523.09	1.572
1524.66	1.567
1526.22	1.572
1527.79	1.573
1529.36	1.571
1530.93	1.568
1532.50	1.567
1534.07	1.564
1535.64	1.567
1537.20	1.564
1538.77	1.562
1540.34	1.560
1541.91	1.555
1543.47	1.554
1545.04	1.555
1546.61	1.552
1548.17	1.548
1549.74	1.548
1551.31	1.549
1552.87	1.545
1554.44	1.546
1556.00	1.542
1557.57	1.543
1559.13	1.541
1560.70	1.542
1562.26	1.540
1563.82	1.539
1565.39	1.541
1566.95	1.540
1568.51	1.535
1570.08	1.536
1571.64	1.530
1573.20	1.534
1574.77	1.532
1576.33	1.527
1577.89	1.524
1579.45	1.526
1581.01	1.522
1582.57	1.528
1584.13	1.518
1585.70	1.517
1587.26	1.516
1588.82	1.512
1590.38	1.515
1591.94	1.513
1593.50	1.515
1595.05	1.506
1596.61	1.510
1598.17	1.506
1599.73	1.504
1601.29	1.503
1602.85	1.495
1604.41	1.497
1605.96	1.489
1607.52	1.493
1609.08	1.488
1610.63	1.487
1612.19	1.482
1613.75	1.481
1615.30	1.478
1616.86	1.475
1618.42	1.475
1619.97	1.466
1621.53	1.468
1623.08	1.458
1624.64	1.460
1626.19	1.453
1627.74	1.452
1629.30	1.451
1630.85	1.440
1632.41	1.435
1633.96	1.426
1635.51	1.430
1637.06	1.417
1638.62	1.416
1640.17	1.409
1641.72	1.403
1643.27	1.398
1644.82	1.393
1646.38	1.388
1647.93	1.385
1649.48	1.381
1651.03	1.370
1652.58	1.366
1654.13	1.360
1655.68	1.348
1657.23	1.345
1658.78	1.332
1660.33	1.326
1661.87	1.315
1663.42	1.309
1664.97	1.294
1666.52	1.287
1668.07	1.274
1669.61	1.260
1671.16	1.243
1672.71	1.227
1674.26	1.207
1675.80	1.189
1677.35	1.161
1678.89	1.129
1680.44	1.105
1681.99	1.071
1683.53	1.037
1685.08	1.006
1686.62	0.962
1688.16	0.935
1689.71	0.907
1691.25	0.874
1692.80	0.845
1694.34	0.818
1695.88	0.794
1697.42	0.767
1698.97	0.740
1700.51	0.717
1702.05	0.692
1703.59	0.669
1705.14	0.641
1706.68	0.623
1708.22	0.602
1709.76	0.573
1711.30	0.556
1712.84	0.531
>>>>>End Processed Spectral Data<<<<<
